intensity,flame_h
0.0,0.0
500.0,0.8120827186918288
1000.0,1.2593668461308996
1500.0,1.627863640276037
2000.0,1.9530089935771067
2500.0,2.2493046519439024
3000.0,2.524468815058687
3500.0,2.783218663638639
4000.0,3.0286998111085794
4500.0,3.2631405278534893
5000.0,3.4881910922440325
5500.0,3.705116247067695
6000.0,3.914911937662759
6500.0,4.118379948196452
7000.0,4.3161776871271815
7500.0,4.50885257686751
8000.0,4.696866515196098
8500.0,4.880613714319496
9000.0,5.06043399330635
9500.0,5.236622870062423
10000.0,5.409439350732322
10500.0,5.57911203032794
11000.0,5.7458439334044025
11500.0,5.909816400229287
12000.0,6.071192239820984
12500.0,6.230118312832149
13000.0,6.386727665974518
13500.0,6.541141310038936
14000.0,6.693469711969889
14500.0,6.843814055513346
15000.0,6.992267313046508
15500.0,7.138915162198829
16000.0,7.283836774003572
16500.0,7.427105494023358
17000.0,7.568789433774717
17500.0,7.708951986546533
18000.0,7.847652279154376
18500.0,7.984945569139971
19000.0,8.120883595295513
19500.0,8.255514888077585
20000.0,8.388885045407992
20500.0,8.52103697848717
21000.0,8.652011131530259
21500.0,8.781845678745363
22000.0,8.910576701383851
22500.0,9.038238347284496
23000.0,9.1648629749918
23500.0,9.290481284241958
24000.0,9.415122434367694
24500.0,9.538814151968232
25000.0,9.661582829016224
25500.0,9.78345361242475
26000.0,9.904450485970207
26500.0,10.024596345357507
27000.0,10.143913067119877
27500.0,10.26242157196413
28000.0,10.380141883101789
28500.0,10.497093180045205
29000.0,10.613293848294386
29500.0,10.728761525293727
30000.0,10.843513142996976
30500.0,10.957564967342968
31000.0,11.070932634913197
31500.0,11.183631187014516
32000.0,11.295675101405708
32500.0,11.40707832186502
33000.0,11.517854285776453
33500.0,11.628015949895504
34000.0,11.737575814439817
34500.0,11.846545945636649
35000.0,11.954937996846859
35500.0,12.062763228374301
36000.0,12.170032526059785
36500.0,12.276756418749928
37000.0,12.382945094723505
37500.0,12.488608417150633
38000.0,12.593755938653961
38500.0,12.698396915035008
39000.0,12.802540318223826
39500.0,12.906194848505232
40000.0,13.009368946070683
40500.0,13.112070801940943
41000.0,13.214308368301122
41500.0,13.31608936828648
42000.0,13.417421305254448
42500.0,13.518311471575602
43000.0,13.61876695697391
43500.0,13.718794656444356
44000.0,13.818401277773885
44500.0,13.917593348689921
45000.0,14.01637722365876
45500.0,14.114759090354761
46000.0,14.212744975819685
46500.0,14.310340752330204
47000.0,14.407552142990422
47500.0,14.504384727065066
48000.0,14.600843945067966
48500.0,14.696935103619484
49000.0,14.792663380085665
49500.0,14.888033827011016
50000.0,14.983051376356112
50500.0,15.077720843550455
51000.0,15.17204693137043
51500.0,15.266034233651474
52000.0,15.359687238843179
52500.0,15.453010333415309
53000.0,15.546007805122448
53500.0,15.638683846134347
54000.0,15.731042556038721
54500.0,15.823087944722849
55000.0,15.914823935139871
55500.0,16.006254365965486
56000.0,16.097382994150266
56500.0,16.188213497372608
57000.0,16.278749476397056
57500.0,16.368994457342414
58000.0,16.45895189386385
58500.0,16.548625169252993
59000.0,16.638017598459772
59500.0,16.727132430039486
60000.0,16.815972848028625
60500.0,16.904541973752426
61000.0,16.99284286756735
61500.0,17.080878530541277
62000.0,17.16865190607408
62500.0,17.256165881461275
63000.0,17.343423289403088
63500.0,17.43042690946129
64000.0,17.517179469465997
64500.0,17.6036836468746
65000.0,17.68994207008466
65500.0,17.775957319702844
66000.0,17.86173192977159
66500.0,17.947268388955216
67000.0,18.032569141687176
67500.0,18.11763658927995
68000.0,18.202473090999092
68500.0,18.28708096510285
69000.0,18.371462489848625
69500.0,18.455619904467728
70000.0,18.539555410109447
70500.0,18.623271170755775
71000.0,18.70676931410779
71500.0,18.79005193244488
72000.0,18.87312108345767
72500.0,18.955978791055795
73000.0,19.03862704615136
73500.0,19.121067807418946
74000.0,19.203303002033145
74500.0,19.285334526384286
75000.0,19.367164246773246
75500.0,19.448794000086068
76000.0,19.530225594449057
76500.0,19.611460809865093
77000.0,19.69250139883182
77500.0,19.773349086942293
78000.0,19.854005573468754
78500.0,19.93447253193005
79000.0,20.014751610643334
79500.0,20.094844433260477
80000.0,20.174752599289803
80500.0,20.2544776846036
81000.0,20.33402124193186
81500.0,20.413384801342733
82000.0,20.492569870710128
82500.0,20.57157793616887
83000.0,20.650410462557833
83500.0,20.72906889385141
84000.0,20.807554653579725
84500.0,20.885869145237944
85000.0,20.964013752685005
85500.0,21.0419898405321
86000.0,21.119798754521288
86500.0,21.19744182189447
87000.0,21.27492035175309
87500.0,21.352235635408775
88000.0,21.429388946725282
88500.0,21.506381542451937
89000.0,21.58321466254885
89500.0,21.659889530504216
90000.0,21.73640735364379
90500.0,21.81276932343295
91000.0,21.888976615771423
91500.0,21.965030391280976
92000.0,22.040931795586218
92500.0,22.116681959588796
93000.0,22.19228199973505
93500.0,22.26773301827748
94000.0,22.343036103530007
94500.0,22.41819233011743
95000.0,22.493202759219017
95500.0,22.568068438806563
96000.0,22.642790403877004
96500.0,22.717369676679716
97000.0,22.791807266938726
97500.0,22.866104172069857
98000.0,22.940261377393092
98500.0,23.01427985634015
99000.0,23.088160570657482
99500.0,23.16190447060482
100000.0,23.235512495149337
100500.0,23.30898557215558
101000.0,23.382324618571307
101500.0,23.455530540609267
102000.0,23.528604233925105
102500.0,23.601546583791453
103000.0,23.674358465268316
103500.0,23.747040743369837
104000.0,23.81959427322757
104500.0,23.89201990025031
105000.0,23.964318460280587
105500.0,24.036490779747925
106000.0,24.108537675818916
106500.0,24.180459956544198
107000.0,24.25225842100244
107500.0,24.323933859441404
108000.0,24.395487053416094
108500.0,24.466918775924164
109000.0,24.538229791538576
109500.0,24.609420856537618
110000.0,24.680492719032323
110500.0,24.75144611909135
111000.0,24.822281788863446
111500.0,24.893000452697418
112000.0,24.963602827259844
112500.0,25.034089621650445
113000.0,25.104461537515213
113500.0,25.17471926915739
114000.0,25.244863503646283
114500.0,25.314894920923997
115000.0,25.38481419391017
115500.0,25.454621988604675
116000.0,25.524318964188396
116500.0,25.59390577312214
117000.0,25.66338306124365
117500.0,25.732751467862837
118000.0,25.80201162585523
118500.0,25.87116416175371
119000.0,25.94020969583857
119500.0,26.009148842225855
120000.0,26.07798220895418
120500.0,26.146710398069917
121000.0,26.215334005710837
121500.0,26.283853622188268
122000.0,26.352269832067762
122500.0,26.420583214248325
123000.0,26.48879434204023
123500.0,26.556903783241463
124000.0,26.624912100212786
124500.0,26.692819849951544
125000.0,26.76062758416409
125500.0,26.82833584933703
126000.0,26.895945186807158
126500.0,26.96345613283025
127000.0,27.030869218648604
127500.0,27.098184970557476
128000.0,27.165403909970333
128500.0,27.232526553483027
129000.0,27.299553412936863
129500.0,27.3664849954806
130000.0,27.43332180363143
130500.0,27.500064335334883
131000.0,27.5667130840238
131500.0,27.633268538676244
132000.0,27.699731183872537
132500.0,27.766101499851274
133000.0,27.83237996256446
133500.0,27.89856704373175
134000.0,27.964663210893754
134500.0,28.03066892746453
135000.0,28.096584652783182
135500.0,28.162410842164668
136000.0,28.228147946949726
136500.0,28.29379641455407
137000.0,28.35935668851675
137500.0,28.424829208547763
138000.0,28.490214410574904
138500.0,28.55551272678988
139000.0,28.620724585693665
139500.0,28.68585041214123
140000.0,28.750890627385452
140500.0,28.81584564912043
141000.0,28.880715891524115
141500.0,28.94550176530023
142000.0,29.010203677719602
142500.0,29.07482203266083
143000.0,29.139357230650337
143500.0,29.2038096689018
144000.0,29.268179741355
144500.0,29.332467838714063
145000.0,29.39667434848515
145500.0,29.460799655013542
146000.0,29.524844139520216
146500.0,29.588808180137814
147000.0,29.652692151946145
147500.0,29.716496427007097
148000.0,29.78022137439909
148500.0,29.84386736025096
149000.0,29.90743474777541
149500.0,29.970923897301912
150000.0,30.034335166309166
150500.0,30.09766890945707
151000.0,30.160925478618253
151500.0,30.2241052229091
152000.0,30.287208488720385
152500.0,30.350235619747426
153000.0,30.413186957019846
153500.0,30.47606283893085
154000.0,30.538863601266165
154500.0,30.601589577232488
155000.0,30.66424109748561
155500.0,30.726818490158067
156000.0,30.78932208088648
156500.0,30.85175219283844
157000.0,30.914109146739076
157500.0,30.976393260897222
158000.0,31.03860485123123
158500.0,31.10074423129442
159000.0,31.1628117123002
159500.0,31.224807603146818
160000.0,31.28673221044178
160500.0,31.348585838525945
161000.0,31.41036878949729
161500.0,31.472081363234338
162000.0,31.5337238574193
162500.0,31.595296567560865
163000.0,31.65679978701672
163500.0,31.718233807015736
164000.0,31.779598916679905
164500.0,31.84089540304593
165000.0,31.902123551086564
165500.0,31.96328364373165
166000.0,32.02437596188891
166500.0,32.085400784464404
167000.0,32.14635838838281
167500.0,32.20724904860733
168000.0,32.26807303815944
168500.0,32.32883062813833
169000.0,32.389522087740055
169500.0,32.450147684276544
170000.0,32.51070768319426
170500.0,32.571202348092704
171000.0,32.63163194074257
171500.0,32.69199672110385
172000.0,32.752296947343474
172500.0,32.81253287585298
173000.0,32.872704761265695
173500.0,32.93281285647397
174000.0,32.99285741264595
174500.0,33.05283867924233
175000.0,33.11275690403277
175500.0,33.17261233311218
176000.0,33.23240521091676
176500.0,33.292135780239875
177000.0,33.3518042822477
177500.0,33.41141095649469
178000.0,33.47095604093888
178500.0,33.530439771956964
179000.0,33.58986238435917
179500.0,33.64922411140404
180000.0,33.70852518481294
180500.0,33.76776583478445
181000.0,33.82694629000852
181500.0,33.886066777680554
182000.0,33.94512752351523
182500.0,34.00412875176017
183000.0,34.06307068520952
183500.0,34.121953545217266
184000.0,34.18077755171049
184500.0,34.23954292320235
185000.0,34.29824987680503
185500.0,34.35689862824247
186000.0,34.41548939186297
186500.0,34.47402238065158
187000.0,34.532497806242475
187500.0,34.59091587893108
188000.0,34.64927680768604
188500.0,34.70758080016118
189000.0,34.76582806270717
189500.0,34.824018800383165
190000.0,34.882153216968256
190500.0,34.94023151497282
191000.0,34.99825389564973
191500.0,35.05622055900539
192000.0,35.11413170381076
192500.0,35.171987527612124
193000.0,35.22978822674181
193500.0,35.2875339963288
194000.0,35.34522503030916
194500.0,35.402861521436414
195000.0,35.46044366129174
195500.0,35.517971640294135
196000.0,35.575445647710374
196500.0,35.63286587166493
197000.0,35.690232499149744
197500.0,35.747545716033905
198000.0,35.8048057070732
198500.0,35.8620126559196
199000.0,35.919166745130596
199500.0,35.976268156178485
200000.0,36.03331706945947
